height(m)   Overlap
101.1643798828125, 0.009625144187235108
108.6358413696289, 0.013577270629233385
116.10730438232422, 0.018663918486787
123.57876434326172, 0.0248699498861231
131.05022277832032, 0.03220116280944497
138.5216827392578, 0.04061193587752419
145.9931427001953, 0.050046766644036525
153.4646026611328, 0.06051250047254884
160.93606262207032, 0.07188304070698971
168.40752563476562, 0.08421340820702435
175.8789855957031, 0.09753413544602565
183.35044555664064, 0.11169692320965688
190.82190551757813, 0.12669045215806746
198.29336547851562, 0.1425791130793696
205.76482543945312, 0.15901047588303668
213.23628845214844, 0.17595356986122654
220.70774841308594, 0.1928865838368027
228.17920837402343, 0.21016766612442805
235.65066833496093, 0.2271828123602737
243.12213134765625, 0.24411928425703996
250.59358825683594, 0.260866845710813
258.06504821777344, 0.2780741412346051
265.53650817871096, 0.29505663047833725
273.0079711914062, 0.3124990652798491
280.47943115234375, 0.3304189302709902
287.9508911132813, 0.34911202353483456
295.42235107421874, 0.368185757765025
302.89381103515626, 0.3878002591546976
310.3652709960937, 0.40831467047297637
317.83673095703125, 0.42876668989332745
325.3081970214844, 0.44942233362553347
332.7796569824219, 0.47099391452571354
340.25111694335936, 0.49202186451078
347.7225769042969, 0.5127324022612301
355.19403686523435, 0.5342664097833658
362.6654968261719, 0.5555327034862221
370.1369567871094, 0.5754822193634579
377.60841674804686, 0.5954602444343392
385.0798767089844, 0.6162211172500491
392.55133666992185, 0.6361697673236822
400.0227966308594, 0.6552542696270338
407.4942565917969, 0.6748304683914315
414.96571655273436, 0.6943988663261245
422.4371765136719, 0.7117942229359295
429.90863647460935, 0.72852709313759
437.3800964355469, 0.7452767607684434
444.8515625, 0.7628056182390097
452.3230224609375, 0.7772884026439504
459.794482421875, 0.7909915459755025
467.2659423828125, 0.8044105157976214
474.73740234375, 0.8179768500023032
482.2088623046875, 0.826973282664409
489.680322265625, 0.8376209027311134
497.15178833007815, 0.8489160064424622
504.6232482910156, 0.8601107439669183
512.0947021484375, 0.8680014340018081
519.566162109375, 0.878459008481968
527.0376220703125, 0.886319023128092
534.50908203125, 0.8959885560158491
541.9805419921875, 0.902991057875145
549.452001953125, 0.9106573243610876
556.9234619140625, 0.915249790864619
564.3949340820312, 0.9215228988343689
571.8663940429688, 0.9234814703385392
579.3378540039063, 0.9280792598422121
586.809326171875, 0.9313401422779792
594.2807861328125, 0.9347287420041104
601.7522338867187, 0.93931964832892
609.2236938476562, 0.9424112777925739
616.6951538085938, 0.9451764652983641
624.1666137695313, 0.948924845337119
631.6380737304687, 0.9526283133880356
639.1095336914062, 0.9551086246407893
646.5809936523438, 0.9600268665610144
654.0524536132813, 0.961863053667579
661.5239135742188, 0.9641629305588226
668.9953735351562, 0.9674325484324278
676.4668334960937, 0.9685093441892045
683.9382934570312, 0.9698226717314375
691.4097534179688, 0.9722742135498177
698.8812133789063, 0.9719168834540046
706.3526733398437, 0.971403432452765
713.8241333007812, 0.9789134702114304
721.2955932617188, 0.9822192621685744
728.7670532226563, 0.985331805409413
736.2385131835938, 0.9885620699843048
743.7099731445312, 0.9901619699388166
751.1814331054687, 0.985780405172067
758.6528930664062, 0.9848207531779524
766.1243530273438, 0.9851746577382565
773.5958129882813, 0.9878819061171642
781.0672729492187, 0.9903223925048324
788.5387451171875, 0.9919906168632326
796.010205078125, 0.9917080431187857
803.4816650390625, 0.989398660871224
810.953125, 0.9864918830211613
818.4245849609375, 0.9857121171799681
825.896044921875, 0.9838662137891182
833.3675048828125, 0.9874311803761812
840.83896484375, 0.9908280207121776
848.3104248046875, 0.9951989512695368
855.781884765625, 0.9964426869128042
863.2533447265625, 0.9977129894866064
870.7248046875, 0.9961369160719155
878.1962646484375, 0.995713639657617
885.667724609375, 0.994354851903241
893.1391845703125, 0.9939486081870624
900.61064453125, 0.9982801366302378
908.0821044921875, 0.9969691500122201
915.553564453125, 0.992743440008668
923.0250244140625, 0.99032916507291
930.496484375, 0.9908479356366786
937.9679443359375, 0.9903501935973955
945.439404296875, 0.9928496981613828
952.9108642578125, 0.9981665762151509
960.38232421875, 0.9964099802602823
967.8537841796875, 0.9972956626449612
975.325244140625, 0.9986723649511291
982.7967041015625, 0.9940913569872889
990.2681640625, 0.992967486886473
997.7396240234375, 0.9957617911858723
1005.211083984375, 0.995584510911639
1012.6825439453125, 0.9941739569829409
1020.15400390625, 1.001213893721132
1027.6254638671876, 1.0015345351692315
1035.0969116210938, 1.0046859435707662
1042.568359375, 1.0071148810220545
1050.0398193359374, 1.0069155954973896
1057.511279296875, 1.0058374773922043
1064.982763671875, 1.0041390003998178
1072.454248046875, 1.0080964213234853
1079.925732421875, 1.0056535349411528
1087.3971923828126, 1.000978432312449
1094.86865234375, 0.9989779299908094
1102.340087890625, 0.9971536556587861
1109.8115478515624, 0.9901853864868407
1117.2830078125, 0.9897318772695621
1124.7544677734375, 0.989397877273072
1132.225927734375, 0.990487239840963
1139.6973876953125, 0.9897515840442512
1147.16884765625, 0.9880737540236708
1154.6403076171875, 0.9871226868204583
1162.111767578125, 0.9909101003140742
1169.5832275390626, 0.9926300588746283
1177.0546875, 1.001880735866997
1184.5261474609374, 1.0066886107305115
1191.997607421875, 1.0096128542145795
1199.4690673828125, 1.0068034103521653
1206.94052734375, 1.008318818107512
1214.4119873046875, 1.0023187815200953
1221.883447265625, 0.9988952232157905
1229.3549072265625, 0.9977223417533356
1236.8263671875, 0.9981755580435012
1244.2978271484376, 0.9953537027728705
1251.769287109375, 1.0003502152542785
1259.2407470703124, 1.001852806036521
1266.71220703125, 1.0019144277512484
1274.1836669921875, 1.0059986310779176
1281.655126953125, 1.0033388632641738
1289.1265869140625, 1.0024402633851393
1296.598046875, 0.9993302467395612
1304.0695068359375, 0.9970472446359431
1311.540966796875, 0.9970876239203521
1319.0124267578126, 1.003834124728136
1326.48388671875, 0.9981381879295244
1333.9553466796874, 1.0035706414242005
1341.426806640625, 1.0063005050269398
1348.8982666015625, 1.0095226248937155
1356.3697265625, 1.0103610338505367
1363.8411865234375, 1.008479689384024
1371.312646484375, 0.9998985390515017
1378.7841064453125, 0.9931749860160124
1386.25556640625, 0.9889946466530997
1393.7270263671876, 0.9870640302676892
1401.198486328125, 0.9942943995414446
1408.6699462890624, 1.0057662333314654
1416.14140625, 1.0139466348960462
1423.6128662109375, 1.0240479811510474
1431.084326171875, 1.0232610998021703
1438.5557861328125, 1.0242505243041837
1446.02724609375, 1.0252635571616933
1453.4987060546875, 1.0194468405571198
1460.970166015625, 1.0128039066589005
1468.4416259765626, 1.0114434599750326
1475.9130859375, 1.0141049557583288
1483.3845458984374, 1.0095794603526784
1490.856005859375, 1.0151842142293592
1498.3274658203125, 1.0068397067869994
1505.79892578125, 1.004370903405229
1513.27041015625, 1.0013288323316278
1520.7418701171875, 0.9924815761061199
1528.213330078125, 0.9871100792234572
1535.6847900390626, 0.9927763064690363
1543.15625, 0.9974897531739118
1550.6277099609374, 0.9986835107089753
1558.099169921875, 1.0040436630508411
1565.5706298828125, 1.015901263046118
1573.04208984375, 1.0187179311412913
1580.5135498046875, 1.0113757088197641
1587.985009765625, 1.006814864373081
1595.4564697265625, 1.004385626002718
1602.9279296875, 0.9977927093597521
1610.3993896484376, 0.9966831565425451
1617.870849609375, 1.000251766223575
1625.3423095703124, 1.0032082924248398
1632.81376953125, 1.00708078059517
1640.2852294921875, 0.997001925972941
1647.756689453125, 0.9941242321843722
1655.2281494140625, 0.9889502388644544
1662.699609375, 0.9953979790685435
1670.1710693359375, 0.9929524654985344
1677.642529296875, 1.0087631192320223
1685.1139892578126, 1.0143248461061276
1692.58544921875, 1.0168439767494253
1700.0569091796874, 1.018006329213502
1707.528369140625, 1.0207691658085418
1714.9998291015625, 1.0226976655377051
1722.4712890625, 1.0140155225680305
1729.9427490234375, 1.01798794487724
1737.414208984375, 1.0085269665749776
1744.8856689453125, 1.0175315651057626
1752.35712890625, 1.0136626730739957
1759.8285888671876, 1.0196786675596505
1767.300048828125, 1.0186067558850158
1774.7715087890624, 1.0224951299388116
1782.24296875, 1.0181186739933383
1789.7144287109375, 1.0183254285240344
1797.185888671875, 1.0098999936380388
1804.6573486328125, 1.0102433804884803
1812.12880859375, 1.0083456491292762
1819.6002685546875, 1.0114071349857205
1827.071728515625, 0.9992659495905013
1834.5431884765626, 1.0102107184248499
1842.0146484375, 1.0150546176050264
1849.4861083984374, 1.0139963682335167
1856.957568359375, 1.0116957913343256
1864.4290283203125, 1.0265269548277893
1871.90048828125, 1.023764969989032
1879.3719482421875, 1.0116915916456997
1886.843408203125, 1.0168600529932994
1894.3148681640625, 1.0065536824362435
1901.786328125, 0.9920326111696696
1909.2577880859376, 0.9892920354815711
1916.729248046875, 0.9958027281958788
1924.2007080078124, 0.9863449517924032
1931.67216796875, 0.9964718525565157
1939.1436279296875, 1.006428223791959
1946.615087890625, 1.0061035030501266
1954.086572265625, 1.0027045221743678
1961.5580322265625, 1.011957484016499
1969.0294921875, 1.0087065252528693
1976.5009521484376, 1.0100315313336399
1983.972412109375, 1.0112702921407162
1991.4438720703124, 1.0147166394440639
1998.91533203125, 1.0079659540669013
2006.3867919921875, 0.9988909987289732
2013.858251953125, 0.9966716108859813
2021.3297119140625, 0.9918469719310133
2028.801171875, 0.9940755175451752
2036.2726318359375, 0.9989076310221142
2043.744091796875, 1.0179864839358983
2051.2155517578126, 1.009792222376793
2058.68701171875, 1.0103381230767856
2066.15849609375, 1.010020984352437
2073.629931640625, 1.0106842258462039
2081.101416015625, 0.9917876550013677
2088.5728515625, 0.9934177470951153
2096.0443359375, 0.9938140844483636
2103.515771484375, 1.003757335900666
2110.987255859375, 1.0000867287042
2118.45869140625, 1.0064488334049453
2125.93017578125, 1.0134689478548113
2133.401611328125, 1.0212194642721506
2140.873046875, 1.0000439228433216
2148.344482421875, 0.9970095915128836
2155.815966796875, 0.9927688589104836
2163.287451171875, 0.988972157258336
2170.758935546875, 0.9870524813238426
2178.230419921875, 1.0034033827786495
2185.701904296875, 1.0100218742089666
2193.17333984375, 1.0284289697250015
2200.644775390625, 1.0371679274313457
2208.1162109375, 1.0335483986558525
2215.587646484375, 1.0412021106047777
2223.05908203125, 1.046942989810601
2230.53056640625, 1.0357686656825196
2238.00205078125, 1.028608456907333
2245.47353515625, 1.02926669771681
2252.94501953125, 1.0154791666953413
2260.41650390625, 0.9983025745928839
2267.887939453125, 1.010170862603572
2275.359375, 1.0078753486317478
2282.830810546875, 0.9940609758747794
2290.30224609375, 1.0070759791687778
2297.773681640625, 1.0104849446866253
2305.245166015625, 1.0002974280593366
2312.716650390625, 1.0122362171071966
2320.188134765625, 1.0262343097801918
2327.659619140625, 1.0093221483478942
2335.131103515625, 1.0070384265436525
2342.6025390625, 1.0021158110133574
2350.073974609375, 0.990342015491392
2357.54541015625, 0.9856873656847212
2365.016845703125, 0.9860770575610905
2372.48828125, 0.9953918920760056
2379.959765625, 0.9976734884839544
2387.43125, 0.9992531796271216
2394.902734375, 1.011944972652002
2402.37421875, 1.0178887489701585
2409.845703125, 1.0137094126659398
2417.317138671875, 1.0154830241700878
2424.78857421875, 1.0202207267696968
2432.260009765625, 1.0255373290740213
2439.7314453125, 1.0184869476091634
2447.202880859375, 1.0148596902039464
2454.674365234375, 1.0167399862759297
2462.145849609375, 1.01327605264517
2469.617333984375, 1.0045921562576194
2477.088818359375, 1.0112820024619358
2484.560302734375, 1.0124375404720856
2492.03173828125, 1.0181513156172823
2499.503173828125, 1.0232520820161948
2506.974609375, 1.0145236353974059
2514.446044921875, 1.0154905301011692
2521.91748046875, 1.026913494306259
2529.38896484375, 1.0184699935585158
2536.86044921875, 1.0055849695367907
2544.33193359375, 1.0085829766704408
2551.80341796875, 1.0254686800743942
2559.27490234375, 1.0264800252398978
2566.746337890625, 1.0174736657829444
2574.2177734375, 1.032017046357241
2581.689208984375, 1.0481246956890762
2589.16064453125, 1.028478825052089
2596.63212890625, 1.0254857238629609
2604.10361328125, 1.034125147037879
2611.57509765625, 1.0340672016151
2619.04658203125, 1.0173082546000747
2626.51806640625, 1.008034074233318
2633.989501953125, 0.9961992610272778
2641.4609375, 1.0029049919407127
2648.932373046875, 0.9854578016597022
2656.40380859375, 0.985223856708896
2663.875244140625, 0.9899657771439649
2671.346728515625, 0.9919178514691847
2678.818212890625, 0.976603952010817
2686.289697265625, 0.9777707872441985
2693.761181640625, 0.9839852768250296
2701.232666015625, 0.9889356171871754
2708.7041015625, 0.9897495717405776
2716.175537109375, 1.0059336151651004
2723.64697265625, 1.0102391175266547
2731.118408203125, 1.0068113277112785
2738.58984375, 1.0200990506499412
2746.061328125, 1.009134738765367
2753.5328125, 1.0023872591064555
2761.004296875, 1.007438744932068
2768.47578125, 1.018795080652622
2775.947265625, 1.0186946967356587
2783.418701171875, 1.0367403696027928
2790.89013671875, 1.0251443034769032
2798.361572265625, 1.0246033968983794
2805.8330078125, 1.0249821028437522
2813.304443359375, 1.0218020583911482
2820.775927734375, 1.0297356301382383
2828.247412109375, 1.0536773111015123
2835.718896484375, 1.0682388126620008
2843.190380859375, 1.0532520470584474
2850.661865234375, 1.0516189655286572
2858.13330078125, 1.0537543921076498
2865.604736328125, 1.0446077161391085
2873.076171875, 1.0298570571317804
2880.547607421875, 1.0261543400558297
2888.01904296875, 1.0068093698352745
2895.49052734375, 0.9909109063256463
2902.96201171875, 1.004768824680869
2910.43349609375, 1.0141607146026232
2917.90498046875, 1.0289470879489138
2925.37646484375, 1.0473270972838777
2932.847900390625, 1.0490029895651616
2940.3193359375, 1.0383023529481403
2947.790771484375, 1.0416189859419973
2955.26220703125, 1.0396081732000082
2962.73369140625, 1.0148564281364951
2970.20517578125, 1.0152715260323717
2977.67666015625, 1.024414605694784
2985.14814453125, 0.9928451437032202
2992.61962890625, 0.9756674177405662
3000.091064453125, 0.9766224539028482
3007.5625, 0.9621215717569076
3015.033935546875, 0.9361357087115918
3022.50537109375, 0.9654639564405884
3029.976806640625, 0.9691737078564143
3037.448291015625, 0.9866535328062283
3044.919775390625, 0.9998040345262785
3052.391259765625, 1.0144736669037946
3059.862744140625, 1.0090538405486398
3067.334228515625, 1.0340765340965
3074.8056640625, 1.0401657523117855
3082.277099609375, 1.022903921378404
3089.74853515625, 1.0391546580100042
3097.219970703125, 1.0227574177228238
3104.69140625, 1.0076819387983413
3112.162890625, 1.0192650979657887
3119.634375, 1.0322945304955606
3127.105859375, 1.0150912181823206
3134.57734375, 1.0212181748830633
3142.048828125, 1.003616484130308
3149.520263671875, 0.9766464271793645
3156.99169921875, 0.9961799850466153
3164.463134765625, 1.015950690190693
3171.9345703125, 1.0249488620420004
3179.406005859375, 1.0531094857192222
3186.877490234375, 1.0697949656978143
3194.348974609375, 1.063422979457793
3201.820458984375, 1.0366439895118016
3209.291943359375, 1.0295370282063887
3216.763427734375, 1.0270479794030645
3224.23486328125, 1.0203488214043348
3231.706298828125, 1.0067785405793372
3239.177734375, 1.019708925217801
3246.649169921875, 1.0097262451812234
3254.12060546875, 0.9709452164439327
3261.59208984375, 0.9624990667221811
3269.06357421875, 0.9997505773325994
3276.53505859375, 0.9662157738957152
3284.00654296875, 0.9753708559995701
3291.47802734375, 1.0003611361719043
3298.949462890625, 1.0131854143905348
3306.4208984375, 0.9765161793970876
3313.892333984375, 1.0047063931917952
3321.36376953125, 1.0503234882576096
3328.835205078125, 1.0432475497697482
3336.306689453125, 1.0438480944945157
3343.778173828125, 1.044211239092423
3351.249658203125, 1.0404899890141954
3358.721142578125, 0.9911261142668092
3366.192626953125, 0.9937501009384515
3373.6640625, 0.9794375724277773
3381.135498046875, 0.9796342063965678
3388.60693359375, 0.9662560907944288
3396.078369140625, 0.9719141415302734
3403.549853515625, 0.9957264831154695
3411.021337890625, 1.0011432240669675
3418.492822265625, 0.9982979820607021
3425.964306640625, 0.9955106303926534
3433.435791015625, 0.9785906203375966
3440.9072265625, 0.9722953118269126
3448.378662109375, 0.9634190634836626
3455.85009765625, 0.975842975342968
3463.321533203125, 0.9841804061626348
3470.79296875, 1.0166613345654703
3478.264453125, 1.0188745443589127
3485.7359375, 1.029065122047394
3493.207421875, 1.0670395815771643
3500.67890625, 1.068778727307651
3508.150390625, 1.0621909599060353
3515.621826171875, 1.0572382295014988
3523.09326171875, 1.0597167741234792
3530.564697265625, 1.0124593142779406
3538.0361328125, 1.0198176584436083
3545.507568359375, 1.0109124658419557
3552.979052734375, 1.0097171010764197
3560.450537109375, 1.0007579385789966
3567.922021484375, 1.0119221263095568
3575.393505859375, 1.0040583618846457
3582.864990234375, 1.0120927061947458
3590.33642578125, 0.99996431893316
3597.807861328125, 0.9992676241305178
3605.279296875, 0.9879511893788215
3612.750732421875, 0.9846064276631775
3620.22216796875, 0.9901302776168425
3627.69365234375, 1.0352607312884445
3635.16513671875, 1.0548374917343404
3642.63662109375, 1.0685746408443926
3650.10810546875, 1.0985400435262733
3657.57958984375, 1.1016046821071237
3665.051025390625, 1.0529978979447732
3672.5224609375, 1.0252267849884624
3679.993896484375, 1.0226300553328418
3687.46533203125, 1.0075070564428183
3694.936767578125, 0.9920788132650957
3702.408251953125, 1.0080163839932126
3709.879736328125, 1.0255688748531842
3717.351220703125, 1.004971325453685
3724.822705078125, 1.0093619681928465
3732.294189453125, 1.062427736190724
3739.765625, 1.0409243263483625
3747.237060546875, 1.0620586299404313
3754.70849609375, 1.0987821894917378
3762.179931640625, 1.0989047350615997
3769.6513671875, 1.034053218763614
3777.1228515625, 1.0464398985207914
3784.5943359375, 1.0245813067512795
3792.0658203125, 0.9851868938839798
3799.5373046875, 0.9646942463454034
3807.0087890625, 0.9846803972012703
3814.480224609375, 0.979246028953311
3821.95166015625, 0.9922976748255842
3829.423095703125, 1.003736352259569
3836.89453125, 1.0178394309661285
3844.366015625, 1.0353574671968986
3851.8375, 1.0630184984273232
3859.308984375, 1.024838821885539
3866.78046875, 1.0473202024498305
3874.251953125, 1.070717077984329
3881.723388671875, 1.0580276464910838
3889.19482421875, 1.0361671405196446
3896.666259765625, 1.0683453099605498
3904.1376953125, 1.0359357508038611
3911.609130859375, 1.0129813068410765
3919.080615234375, 0.991654053181805
3926.552099609375, 1.016780366371412
3934.023583984375, 1.006347690472666
3941.495068359375, 1.0229137982256429
3948.966552734375, 1.0211920077595882
3956.43798828125, 1.0453460558916994
3963.909423828125, 0.9978844058546711
3971.380859375, 1.00049097992135
3978.852294921875, 0.9894243151291752
3986.32373046875, 0.9922626254377332
3993.79521484375, 0.9883190763168066
