height(m)   overlap
3.750000, 1.288713E-6
11.221460, -2.187091E-7
18.692921, 4.561897E-5
26.164381, 7.135694E-5
33.635841, 1.086960E-4
41.107300, 1.542537E-4
48.578762, 2.101766E-4
56.050220, 2.883774E-4
63.521683, 4.341490E-4
70.993141, 5.814265E-4
78.464600, 8.070499E-4
85.936066, 1.108784E-3
93.407524, 1.484752E-3
100.878983, 1.951083E-3
108.350441, 2.487186E-3
115.821907, 3.136552E-3
123.293365, 3.854214E-3
130.764832, 4.758477E-3
138.236282, 5.809478E-3
145.707748, 6.953329E-3
153.179199, 8.298128E-3
160.650665, 9.449529E-3
168.122131, 1.127034E-2
175.593582, 1.310535E-2
183.065048, 1.565795E-2
190.536499, 1.803305E-2
198.007965, 2.072695E-2
205.479431, 2.483534E-2
212.950882, 2.847162E-2
220.422348, 3.339495E-2
227.893814, 4.125693E-2
235.365265, 4.947369E-2
242.836731, 6.008222E-2
250.308182, 7.366584E-2
257.779663, 9.187962E-2
265.251099, 1.156368E-1
272.722565, 1.439697E-1
280.194031, 1.819464E-1
287.665497, 2.329374E-1
295.136963, 2.963192E-1
302.608398, 3.712619E-1
310.079865, 4.647738E-1
317.551331, 5.520577E-1
325.022797, 6.336782E-1
332.494263, 6.982725E-1
339.965698, 7.589960E-1
347.437164, 8.090801E-1
354.908630, 8.397842E-1
362.380096, 8.712486E-1
369.851562, 8.919955E-1
377.322998, 9.089537E-1
384.794464, 9.197506E-1
392.265930, 9.264952E-1
399.737396, 9.374338E-1
407.208862, 9.414087E-1
414.680298, 9.482393E-1
422.151764, 9.482264E-1
429.623230, 9.532699E-1
437.094696, 9.626630E-1
444.566162, 9.597288E-1
452.037628, 9.660068E-1
459.509064, 9.738859E-1
466.980530, 9.667971E-1
474.451996, 9.721645E-1
481.923462, 9.753662E-1
489.394928, 9.711162E-1
496.866364, 9.742355E-1
504.337830, 9.765894E-1
511.809296, 9.874657E-1
519.280762, 9.800538E-1
526.752197, 9.937065E-1
534.223694, 9.814685E-1
541.695129, 9.854306E-1
549.166626, 9.905783E-1
556.638062, 9.903721E-1
564.109497, 9.900253E-1
571.580994, 9.865187E-1
579.052429, 9.915993E-1
586.523926, 9.778858E-1
593.995361, 9.942930E-1
601.466797, 9.979280E-1
608.938293, 1.001277E+0
616.409729, 9.927635E-1
623.881226, 9.930651E-1
631.352661, 9.948223E-1
638.824097, 1.000369E+0
646.295593, 9.970314E-1
653.767029, 9.873559E-1
661.238525, 9.998627E-1
668.709961, 9.968292E-1
676.181396, 9.936398E-1
683.652893, 9.922752E-1
691.124329, 1.007290E+0
698.595825, 9.969083E-1
706.067261, 9.922569E-1
713.538696, 1.009154E+0
721.010193, 1.007701E+0
728.481628, 1.000581E+0
735.953125, 9.936132E-1
743.424561, 9.977069E-1
750.895996, 1.003517E+0
758.367493, 1.010390E+0
765.838928, 1.006769E+0
773.310425, 1.001749E+0
780.781860, 1.010449E+0
788.253296, 1.000369E+0
795.724792, 9.901996E-1
803.196228, 1.004277E+0
810.667725, 1.001695E+0
818.139160, 9.929160E-1
825.610596, 9.906669E-1
833.082092, 1.007442E+0
840.553528, 1.012570E+0
848.025024, 1.001192E+0
855.496460, 1.002412E+0
862.967957, 1.002641E+0
870.439392, 1.006591E+0
877.910828, 1.013797E+0
885.382324, 9.988711E-1
892.853760, 9.985031E-1
900.325256, 1.010336E+0
907.796692, 9.970410E-1
915.268127, 9.907333E-1
922.739624, 1.004245E+0
930.211060, 1.009499E+0
937.682556, 1.002210E+0
945.153992, 9.993692E-1
952.625427, 1.012918E+0
960.096924, 1.001896E+0
967.568359, 1.008740E+0
975.039856, 9.953432E-1
982.511292, 1.003106E+0
989.982727, 1.009500E+0
997.454224, 9.989995E-1
1004.925659, 9.928053E-1
1012.397156, 9.974880E-1
1019.868591, 1.002236E+0
1027.340088, 1.011876E+0
1034.811523, 9.890987E-1
1042.282959, 1.002221E+0
1049.754395, 9.896617E-1
1057.225952, 1.011842E+0
1064.697388, 1.017676E+0
1072.168823, 9.996039E-1
1079.640259, 1.003257E+0
1087.111694, 1.005089E+0
1094.583252, 1.001054E+0
1102.054687, 1.003902E+0
1109.526123, 1.011930E+0
1116.997559, 9.781004E-1
1124.468994, 9.957376E-1
1131.940552, 9.977862E-1
1139.411987, 9.922175E-1
1146.883423, 9.836072E-1
1154.354858, 9.864231E-1
1161.826294, 9.806833E-1
1169.297852, 9.979058E-1
1176.769287, 9.865574E-1
1184.240723, 9.871598E-1
1191.712158, 9.989112E-1
1199.183594, 9.815294E-1
1206.655151, 9.740778E-1
1214.126587, 9.845912E-1
1221.598022, 9.986403E-1
1229.069458, 9.894177E-1
1236.540894, 9.898439E-1
1244.012451, 9.947763E-1
1251.483887, 9.842189E-1
1258.955322, 9.786901E-1
1266.426758, 9.869972E-1
1273.898193, 9.805847E-1
1281.369751, 9.671638E-1
1288.841187, 1.014010E+0
1296.312622, 9.926924E-1
1303.784058, 1.000514E+0
1311.255493, 1.010277E+0
1318.727051, 9.895231E-1
1326.198486, 9.786997E-1
1333.669922, 9.930920E-1
1341.141357, 9.883791E-1
1348.612793, 9.970205E-1
1356.084351, 1.009328E+0
1363.555786, 1.010599E+0
1371.027222, 1.007097E+0
1378.498657, 1.001783E+0
1385.970093, 9.730097E-1
1393.441650, 9.990863E-1
1400.913086, 9.861069E-1
1408.384521, 9.996531E-1
1415.855957, 9.905075E-1
1423.327393, 9.909145E-1
1430.798950, 1.016659E+0
1438.270386, 9.934846E-1
1445.741821, 9.943965E-1
1453.213257, 1.036551E+0
1460.684692, 9.963577E-1
1468.156250, 9.876910E-1
1475.627686, 1.015149E+0
1483.099121, 9.883210E-1
1490.570557, 1.022904E+0
1498.041992, 1.003760E+0
1505.513550, 1.002659E+0
1512.984985, 9.915343E-1
1520.456421, 9.955776E-1
1527.927856, 1.015192E+0
1535.399292, 1.003027E+0
1542.870850, 9.971469E-1
1550.342285, 9.921619E-1
1557.813721, 9.861621E-1
1565.285156, 9.723330E-1
1572.756592, 9.893715E-1
1580.228149, 1.001298E+0
1587.699585, 9.893723E-1
1595.171021, 9.983392E-1
1602.642456, 1.015555E+0
1610.113892, 1.020952E+0
1617.585449, 1.004887E+0
1625.056885, 9.991694E-1
1632.528320, 1.022027E+0
1639.999756, 9.946838E-1
1647.471191, 9.947421E-1
1654.942749, 9.743932E-1
1662.414185, 1.037173E+0
1669.885620, 9.757278E-1
1677.357056, 9.761979E-1
1684.828613, 9.734562E-1
1692.300049, 1.014194E+0
1699.771484, 1.015019E+0
1707.242920, 1.016346E+0
1714.714355, 9.936013E-1
1722.185913, 9.860812E-1
1729.657349, 9.943399E-1
1737.128784, 9.751353E-1
1744.600220, 9.776413E-1
1752.071655, 1.015675E+0
1759.543213, 9.972013E-1
1767.014648, 1.005566E+0
1774.486084, 9.610178E-1
1781.957520, 9.977642E-1
1789.428955, 1.016669E+0
1796.900513, 1.011267E+0
1804.371948, 9.837465E-1
1811.843384, 9.864309E-1
1819.314819, 1.021750E+0
1826.786255, 1.019252E+0
1834.257812, 9.885007E-1
1841.729248, 1.029764E+0
1849.200684, 9.926883E-1
1856.672119, 1.024240E+0
1864.143555, 9.992212E-1
1871.615112, 1.008027E+0
1879.086548, 9.968091E-1
1886.557983, 9.913607E-1
1894.029419, 9.957618E-1
1901.500854, 1.028447E+0
1908.972412, 9.621470E-1
1916.443848, 1.035814E+0
1923.915283, 1.007920E+0
1931.386719, 1.019007E+0
1938.858154, 9.869449E-1
1946.329712, 9.833897E-1
1953.801147, 9.898398E-1
1961.272583, 1.024234E+0
1968.744019, 1.007234E+0
1976.215454, 9.871633E-1
1983.687012, 9.872043E-1
1991.158447, 1.004360E+0
1998.629883, 9.853635E-1
2006.101318, 9.713147E-1
2013.572754, 9.952097E-1
2021.044312, 1.006585E+0
2028.515747, 1.007617E+0
2035.987183, 9.847707E-1
2043.458618, 9.656938E-1
2050.930176, 9.953295E-1
2058.401611, 9.938166E-1
2065.873047, 1.032965E+0
2073.344482, 1.011357E+0
2080.815918, 9.805032E-1
2088.287354, 1.022673E+0
2095.758789, 1.010930E+0
2103.230225, 9.989131E-1
2110.701904, 9.815095E-1
2118.173340, 1.024012E+0
2125.644775, 1.003063E+0
2133.116211, 1.018480E+0
2140.587646, 9.640037E-1
2148.059082, 9.930607E-1
2155.530518, 1.007915E+0
2163.001953, 9.952264E-1
2170.473389, 1.007874E+0
2177.944824, 1.037300E+0
2185.416504, 1.004357E+0
2192.887939, 9.914306E-1
2200.359375, 9.750210E-1
2207.830811, 9.895608E-1
2215.302246, 1.005185E+0
2222.773682, 1.001018E+0
2230.245117, 1.023776E+0
2237.716553, 1.016176E+0
2245.187988, 9.810266E-1
2252.659424, 9.660088E-1
2260.131104, 9.819992E-1
2267.602539, 9.991317E-1
2275.073975, 9.856440E-1
2282.545410, 1.034746E+0
2290.016846, 9.982537E-1
2297.488281, 1.026317E+0
2304.959717, 9.894384E-1
2312.431152, 9.711603E-1
2319.902588, 9.798240E-1
2327.374023, 9.975956E-1
2334.845703, 1.003164E+0
2342.317139, 9.956618E-1
2349.788574, 9.952353E-1
2357.260010, 9.991196E-1
2364.731445, 1.037248E+0
2372.202881, 1.011089E+0
2379.674316, 1.007654E+0
2387.145752, 1.003738E+0
2394.617187, 9.817228E-1
2402.088623, 1.003935E+0
2409.560303, 1.018260E+0
2417.031738, 9.995754E-1
2424.503174, 9.995652E-1
2431.974609, 9.556374E-1
2439.446045, 1.005297E+0
2446.917480, 1.010636E+0
2454.388916, 9.931320E-1
2461.860352, 9.805757E-1
2469.331787, 1.011542E+0
2476.803223, 9.723436E-1
2484.274902, 9.858481E-1
2491.746338, 1.035303E+0
2499.217773, 9.679032E-1
2506.689209, 1.002659E+0
2514.160645, 9.999124E-1
2521.632080, 1.024475E+0
2529.103516, 1.010529E+0
2536.574951, 9.977454E-1
2544.046387, 9.988889E-1
2551.517822, 1.019586E+0
2558.989502, 1.002542E+0
2566.460937, 1.003610E+0
2573.932373, 1.012937E+0
2581.403809, 9.994756E-1
2588.875244, 9.796433E-1
2596.346680, 1.015777E+0
2603.818115, 9.890043E-1
2611.289551, 9.887780E-1
2618.760986, 1.001211E+0
2626.232422, 9.643666E-1
2633.704102, 9.836392E-1
2641.175537, 9.537634E-1
2648.646973, 9.888747E-1
2656.118408, 1.017172E+0
2663.589844, 1.018029E+0
2671.061279, 9.594747E-1
2678.532715, 9.931150E-1
2686.004150, 1.019597E+0
2693.475586, 1.032581E+0
2700.947266, 1.019451E+0
2708.418701, 1.009316E+0
2715.890137, 1.009640E+0
2723.361572, 9.920692E-1
2730.833008, 1.008245E+0
2738.304443, 1.020017E+0
2745.775879, 9.943556E-1
2753.247314, 9.527767E-1
2760.718750, 1.014094E+0
2768.190186, 1.000760E+0
2775.661865, 9.959929E-1
2783.133301, 9.665308E-1
2790.604736, 1.019703E+0
2798.076172, 9.882196E-1
2805.547607, 9.902938E-1
2813.019043, 9.827685E-1
2820.490479, 1.019555E+0
2827.961914, 1.006008E+0
2835.433350, 1.002246E+0
2842.904785, 1.008023E+0
2850.376465, 1.032527E+0
2857.847900, 1.032729E+0
2865.319336, 1.018399E+0
2872.790771, 9.645002E-1
2880.262207, 1.010434E+0
2887.733643, 9.890053E-1
2895.205078, 1.036223E+0
2902.676514, 1.023093E+0
2910.147949, 1.003271E+0
2917.619385, 9.556092E-1
2925.091064, 9.922335E-1
2932.562500, 1.031226E+0
2940.033936, 1.004229E+0
2947.505371, 9.666258E-1
2954.976807, 9.723214E-1
2962.448242, 9.885880E-1
2969.919678, 9.772195E-1
2977.391113, 9.978026E-1
2984.862549, 9.687876E-1
2992.333984, 1.071449E+0
2999.805664, 1.032757E+0
3007.277100, 9.508004E-1
3014.748535, 9.781249E-1
3022.219971, 9.638972E-1
3029.691406, 9.889956E-1
3037.162842, 1.039968E+0
3044.634277, 9.877413E-1
3052.105713, 9.811908E-1
3059.577148, 1.016326E+0
3067.048584, 1.021466E+0
3074.520264, 1.042515E+0
3081.991699, 1.024016E+0
3089.463135, 1.025309E+0
3096.934570, 9.874262E-1
3104.406006, 1.011931E+0
3111.877441, 1.043952E+0
3119.348877, 1.007627E+0
3126.820312, 9.544513E-1
3134.291748, 9.701064E-1
3141.763184, 9.934110E-1
3149.234863, 9.779872E-1
3156.706299, 9.737026E-1
3164.177734, 9.128335E-1
3171.649170, 1.002884E+0
3179.120605, 9.952054E-1
3186.592041, 9.845343E-1
3194.063477, 1.016585E+0
3201.534912, 1.006117E+0
3209.006348, 9.994451E-1
3216.477783, 9.869910E-1
3223.949463, 9.583514E-1
3231.420898, 1.037866E+0
3238.892334, 1.060259E+0
3246.363770, 9.982567E-1
3253.835205, 9.675996E-1
3261.306641, 9.578149E-1
3268.778076, 9.512469E-1
3276.249512, 9.171653E-1
3283.720947, 9.930587E-1
3291.192383, 1.056091E+0
3298.664062, 9.766308E-1
3306.135498, 9.859316E-1
3313.606934, 9.855125E-1
3321.078369, 1.050645E+0
3328.549805, 9.995476E-1
3336.021240, 1.033866E+0
3343.492676, 1.001482E+0
3350.964111, 1.011547E+0
3358.435547, 9.914975E-1
3365.907227, 1.048418E+0
3373.378662, 1.067846E+0
3380.850098, 9.973194E-1
3388.321533, 9.859338E-1
3395.792969, 1.030764E+0
3403.264404, 9.665305E-1
3410.735840, 9.839987E-1
3418.207275, 9.378576E-1
3425.678711, 9.850584E-1
3433.150146, 1.038421E+0
3440.621826, 1.034333E+0
3448.093262, 9.962392E-1
3455.564697, 1.014288E+0
3463.036133, 1.033756E+0
3470.507568, 9.905861E-1
3477.979004, 1.013155E+0
3485.450439, 1.023639E+0
3492.921875, 1.018376E+0
3500.393311, 1.036350E+0
3507.864746, 9.616506E-1
3515.336426, 1.048322E+0
3522.807861, 1.003715E+0
3530.279297, 1.064693E+0
3537.750732, 9.902802E-1
3545.222168, 1.005759E+0
3552.693604, 9.434134E-1
3560.165039, 9.835111E-1
3567.636475, 9.477102E-1
3575.107910, 1.040452E+0
3582.579346, 1.008624E+0
3590.051025, 9.970426E-1
3597.522461, 1.034896E+0
3604.993896, 1.028587E+0
3612.465332, 1.032874E+0
3619.936768, 9.868109E-1
3627.408203, 9.198138E-1
3634.879639, 1.012052E+0
3642.351074, 9.655574E-1
3649.822510, 9.798995E-1
3657.293945, 9.867814E-1
3664.765625, 9.942614E-1
3672.237061, 1.025199E+0
3679.708496, 1.051034E+0
3687.179932, 9.991972E-1
3694.651367, 1.007925E+0
3702.122803, 9.925107E-1
3709.594238, 9.402500E-1
3717.065674, 1.002846E+0
3724.537109, 9.964907E-1
3732.008545, 1.022780E+0
3739.480225, 9.427541E-1
3746.951660, 1.019175E+0
3754.423096, 1.027812E+0
3761.894531, 1.027822E+0
3769.365967, 1.032899E+0
3776.837402, 1.125091E+0
3784.308838, 9.659146E-1
3791.780273, 9.342242E-1
3799.251709, 9.486767E-1
3806.723145, 1.043204E+0
3814.194824, 9.565198E-1
3821.666260, 1.061171E+0
3829.137695, 9.895933E-1
3836.609131, 9.900360E-1
3844.080566, 9.551254E-1
3851.552002, 9.589604E-1
3859.023437, 9.639572E-1
3866.494873, 9.992535E-1
3873.966309, 9.486252E-1
3881.437744, 1.035170E+0
3888.909424, 9.626614E-1
3896.380859, 9.479250E-1
3903.852295, 9.930517E-1
3911.323730, 9.946554E-1
3918.795166, 1.006956E+0
3926.266602, 1.020658E+0
3933.738037, 9.934903E-1
3941.209473, 9.850204E-1
3948.680908, 1.005005E+0
3956.152344, 9.851185E-1
3963.624023, 1.020927E+0
3971.095459, 1.015279E+0
3978.566895, 9.950382E-1
3986.038330, 1.076030E+0
3993.509766, 1.074977E+0
4000.981201, 1.014049E+0
4008.452637, 1.032636E+0
4015.924072, 1.031469E+0
4023.395508, 9.264479E-1
4030.867187, 1.006473E+0
4038.338623, 1.054045E+0
4045.810059, 9.551189E-1
4053.281494, 1.017161E+0
4060.752930, 1.052604E+0
4068.224365, 9.412884E-1
4075.695801, 1.000320E+0
4083.167236, 1.012530E+0
4090.638672, 9.784653E-1
4098.110352, 1.051120E+0
4105.581543, 9.724040E-1
4113.053223, 1.007779E+0
4120.524414, 9.742444E-1
4127.996094, 9.885087E-1
4135.467285, 1.025923E+0
4142.938965, 1.010835E+0
4150.410645, 9.884543E-1
4157.881836, 9.032186E-1
4165.353516, 1.012027E+0
4172.824707, 9.623020E-1
4180.296387, 9.887063E-1
4187.767578, 9.954740E-1
4195.239258, 9.622757E-1
4202.710449, 9.767250E-1
4210.182129, 9.350128E-1
4217.653809, 9.895283E-1
4225.125000, 9.703860E-1
4232.596680, 1.034677E+0
4240.067871, 1.075559E+0
4247.539551, 1.022300E+0
4255.010742, 1.066740E+0
4262.482422, 1.010294E+0
4269.953613, 9.623261E-1
4277.425293, 1.003765E+0
4284.896484, 9.418116E-1
4292.368164, 9.955062E-1
4299.839844, 1.011920E+0
4307.311035, 1.012124E+0
4314.782715, 1.058996E+0
4322.253906, 1.000947E+0
4329.725586, 1.031418E+0
4337.196777, 1.049967E+0
4344.668457, 1.017067E+0
4352.139648, 9.887778E-1
4359.611328, 1.068794E+0
4367.083008, 9.868816E-1
4374.554199, 9.957978E-1
4382.025879, 9.737214E-1
4389.497070, 9.464311E-1
4396.968750, 1.038767E+0
4404.439941, 9.459838E-1
4411.911621, 1.012596E+0
4419.382812, 9.324412E-1
4426.854492, 9.834007E-1
4434.325684, 9.602513E-1
4441.797363, 9.899682E-1
4449.269043, 1.016404E+0
4456.740234, 1.041949E+0
4464.211914, 1.010437E+0
4471.683105, 9.800427E-1
4479.154785, 1.026013E+0
4486.625977, 9.729218E-1
4494.097656, 9.955168E-1
4501.568848, 1.052516E+0
4509.040527, 9.291276E-1
4516.512207, 1.083597E+0
4523.983398, 1.011381E+0
4531.455078, 1.113564E+0
4538.926270, 9.950073E-1
4546.397949, 9.952535E-1
4553.869141, 9.807212E-1
4561.340820, 1.027166E+0
4568.812012, 1.126888E+0
4576.283691, 9.233240E-1
4583.754883, 1.027293E+0
4591.226562, 9.550609E-1
4598.698242, 1.004782E+0
4606.169434, 9.733728E-1
4613.641113, 9.455852E-1
4621.112305, 9.278267E-1
4628.583984, 9.948630E-1
4636.055176, 1.046417E+0
4643.526855, 1.006405E+0
4650.998047, 9.980447E-1
4658.469727, 1.032980E+0
4665.941406, 9.532655E-1
4673.412598, 1.105422E+0
4680.884277, 9.882177E-1
4688.355469, 9.383214E-1
4695.827148, 9.428128E-1
4703.298340, 1.006391E+0
4710.770020, 1.008492E+0
4718.241211, 9.834696E-1
4725.712891, 9.594931E-1
4733.184570, 1.037361E+0
4740.655762, 9.858680E-1
4748.127441, 9.426882E-1
4755.598633, 1.108338E+0
4763.070312, 9.399454E-1
4770.541504, 9.853941E-1
4778.013184, 1.124584E+0
4785.484375, 9.733506E-1
4792.956055, 9.855014E-1
4800.427246, 1.015839E+0
4807.898926, 9.440510E-1
4815.370605, 1.070297E+0
4822.841797, 1.032036E+0
4830.313477, 9.758915E-1
4837.784668, 9.955117E-1
4845.256348, 1.038126E+0
4852.727539, 9.576514E-1
4860.199219, 9.706020E-1
4867.670410, 9.736967E-1
4875.142090, 9.538473E-1
4882.613770, 9.952812E-1
4890.084961, 1.011178E+0
4897.556641, 9.847455E-1
4905.027832, 9.385761E-1
4912.499512, 1.099742E+0
4919.970703, 9.713705E-1
4927.442383, 1.054642E+0
4934.913574, 1.132046E+0
4942.385254, 9.783529E-1
4949.856445, 8.985846E-1
4957.328125, 1.056600E+0
4964.799805, 1.011753E+0
4972.270996, 8.634058E-1
4979.742676, 9.875028E-1
4987.213867, 1.076414E+0
4994.685547, 9.921190E-1
5002.156738, 1.043233E+0
5009.628418, 9.059797E-1
5017.099609, 9.890222E-1
5024.571289, 1.048176E+0
5032.042969, 9.108618E-1
5039.514160, 9.775492E-1
5046.985840, 1.023583E+0
5054.457031, 9.999820E-1
5061.928711, 1.082237E+0
5069.399902, 1.029514E+0
5076.871582, 9.361044E-1
5084.342773, 9.464684E-1
5091.814453, 1.065314E+0
5099.285645, 1.023059E+0
5106.757324, 9.680126E-1
5114.229004, 1.025008E+0
5121.700195, 9.966945E-1
5129.171875, 9.445116E-1
5136.643066, 9.755983E-1
5144.114746, 1.030135E+0
5151.585937, 1.026512E+0
5159.057617, 1.021267E+0
5166.528809, 9.828086E-1
5174.000488, 9.905934E-1
5181.472168, 9.331615E-1
5188.943359, 9.624521E-1
5196.415039, 9.653736E-1
5203.886230, 1.047464E+0
5211.357910, 1.041905E+0
5218.829102, 9.285886E-1
5226.300781, 1.056463E+0
5233.771973, 1.054167E+0
5241.243652, 1.082130E+0
5248.714844, 1.089105E+0
5256.186523, 1.003221E+0
5263.658203, 9.742055E-1
5271.129395, 9.714838E-1
5278.601074, 1.106502E+0
5286.072266, 9.551129E-1
5293.543945, 9.900442E-1
5301.015137, 9.575091E-1
5308.486816, 1.107438E+0
5315.958008, 1.067127E+0
5323.429687, 9.613791E-1
5330.901367, 1.038006E+0
5338.372559, 9.866992E-1
5345.844238, 9.354344E-1
5353.315430, 1.001749E+0
5360.787109, 1.107395E+0
5368.258301, 9.710848E-1
5375.729980, 1.014370E+0
5383.201172, 1.000294E+0
5390.672852, 1.062159E+0
5398.144531, 9.225316E-1
5405.615723, 1.009854E+0
5413.087402, 9.912856E-1
5420.558594, 1.030924E+0
5428.030273, 1.108067E+0
5435.501465, 9.265395E-1
5442.973145, 9.958214E-1
5450.444336, 1.037182E+0
5457.916016, 1.021978E+0
5465.387207, 9.961724E-1
5472.858887, 9.218501E-1
5480.330566, 8.773196E-1
5487.801758, 9.397832E-1
5495.273437, 1.023136E+0
5502.744629, 9.430405E-1
5510.216309, 1.023648E+0
5517.687500, 9.582387E-1
5525.159180, 9.057652E-1
5532.630371, 9.350590E-1
5540.102051, 1.027719E+0
5547.573730, 1.057522E+0
5555.044922, 9.146981E-1
5562.516602, 9.415878E-1
5569.987793, 1.077386E+0
5577.459473, 9.955899E-1
5584.930664, 1.045833E+0
5592.402344, 9.639774E-1
5599.873535, 1.031081E+0
5607.345215, 9.319955E-1
5614.816406, 9.848398E-1
5622.288086, 9.997151E-1
5629.759766, 1.059707E+0
5637.230957, 1.083798E+0
5644.702637, 1.011207E+0
5652.173828, 1.007457E+0
5659.645508, 9.585301E-1
5667.116699, 1.007476E+0
5674.588379, 1.007820E+0
5682.059570, 9.126038E-1
5689.531250, 9.976406E-1
5697.002930, 1.147443E+0
5704.474121, 1.013778E+0
5711.945801, 1.072726E+0
5719.416992, 1.101360E+0
5726.888672, 1.000911E+0
5734.359863, 9.529900E-1
5741.831543, 1.113586E+0
5749.302734, 1.077988E+0
5756.774414, 9.686639E-1
5764.245605, 1.163112E+0
5771.717285, 1.022058E+0
5779.188965, 1.054392E+0
5786.660156, 9.338967E-1
5794.131836, 9.143981E-1
5801.603027, 9.265681E-1
5809.074707, 1.072649E+0
5816.545898, 9.988671E-1
5824.017578, 1.101886E+0
5831.488770, 9.831413E-1
5838.960449, 9.467846E-1
5846.432129, 8.671009E-1
5853.903320, 9.891348E-1
5861.375000, 9.662837E-1
5868.846191, 9.836956E-1
5876.317871, 9.194993E-1
5883.789062, 9.507066E-1
5891.260742, 8.778119E-1
5898.731934, 9.802891E-1
5906.203613, 9.873722E-1
5913.674805, 9.964543E-1
5921.146484, 1.036186E+0
5928.618164, 9.259279E-1
5936.089355, 8.968473E-1
5943.561035, 1.016104E+0
5951.032227, 9.355712E-1
5958.503906, 9.726861E-1
5965.975098, 1.110738E+0
5973.446777, 1.056197E+0
5980.917969, 9.887972E-1
5988.389648, 9.460109E-1
5995.861328, 1.006037E+0
6003.332520, 9.730554E-1
6010.804199, 1.113938E+0
